INDEX VERSION 1.131+C:\Users\ramannpr\support_works\prem-java8-springboot-microservices\.metadata\.plugins\org.eclipse.jdt.core
924709048.index
2169407369.index
3201819475.index
43619385.index
2880578291.index
2138448766.index
2168459144.index
3370275585.index
599052745.index
4140093956.index
4141541229.index
3156457552.index
3090250505.index
2231687035.index
3632026558.index
2818058632.index
3862945460.index
446869445.index
1441918778.index
3484441794.index
3785549540.index
309072976.index
332552512.index
1367400509.index
1185814170.index
2529513876.index
3021564120.index
3141256530.index
2088757168.index
986730341.index
2826165369.index
1315345580.index
385337418.index
3962763584.index
1404714077.index
1424354549.index
2720751595.index
3664434139.index
374393369.index
1614806129.index
1381102295.index
2104390034.index
2112741047.index
3324278907.index
1805612800.index
3967280502.index
2416067767.index
4255236744.index
74695827.index
286238605.index
2909032549.index
1214367305.index
2513897111.index
2747938833.index
3283175862.index
1225148049.index
2532292776.index
890392424.index
3662550970.index
3549324868.index
3515129874.index
258828259.index
1989775971.index
3163738933.index
954156428.index
2020554435.index
146901387.index
575839070.index
1495270895.index
689552030.index
3651360691.index
63419949.index
3151052348.index
398852022.index
2676596651.index
2204403105.index
1575816604.index
2507475985.index
630080528.index
3501317306.index
2794118743.index
3906887083.index
1708851462.index
778568628.index
689502246.index
1366534072.index
1972697557.index
1450648637.index
106914297.index
972511311.index
4274504815.index
4063562878.index
1515444387.index
1158433969.index
362199794.index
262629720.index
1456010245.index
1760445989.index
1655230666.index
488997700.index
4208044171.index
