INDEX VERSION 1.131+C:\Users\ramannpr\support_works\prem-java8-springboot-microservices\.metadata\.plugins\org.eclipse.jdt.core
4072707551.index
1225148049.index
3549324868.index
1381102295.index
3196848607.index
3662550970.index
1158433969.index
1366534072.index
43619385.index
1285544063.index
1618400528.index
332552512.index
4255236744.index
1856369856.index
3113459258.index
3141256530.index
2720751595.index
2826165369.index
2676596651.index
3021564120.index
4020449950.index
4063562878.index
146901387.index
385337418.index
655375146.index
4141541229.index
1614806129.index
2818058632.index
3370275585.index
2642397326.index
286238605.index
1495270895.index
3511723715.index
870993433.index
1657313049.index
2088757168.index
2416067767.index
4208017447.index
972511311.index
1456010245.index
1650732884.index
2970272929.index
1253441553.index
2020554435.index
1843123581.index
3962763584.index
1707860295.index
1655230666.index
3163738933.index
1458409927.index
3116846752.index
2532292776.index
262584783.index
2809423333.index
1575816604.index
3795247591.index
2794118743.index
2880578291.index
2950603888.index
1892195776.index
1098164584.index
1367400509.index
3723013793.index
1918927979.index
2915718050.index
465150192.index
3664434139.index
258828259.index
3751154532.index
309072976.index
924709048.index
3283175862.index
2988535940.index
4057192102.index
3017227148.index
599052745.index
3447939360.index
778568628.index
1424354549.index
2104390034.index
1956158391.index
1989775971.index
4237426067.index
1185814170.index
3090250505.index
689552030.index
4052862817.index
4010656398.index
262629720.index
2568692430.index
3722966287.index
3902746089.index
986730341.index
3211773916.index
488997700.index
1084772038.index
4140093956.index
2507475985.index
3324278907.index
74695827.index
3804311065.index
3572692575.index
890392424.index
374393369.index
2112741047.index
1423314316.index
1450648637.index
813966927.index
3651360691.index
2915072775.index
1281337094.index
3484441794.index
2231687035.index
4208044171.index
4274504815.index
1508738211.index
2909032549.index
3244034644.index
63419949.index
2398531443.index
2229980189.index
954156428.index
2138448766.index
398852022.index
3515129874.index
1315345580.index
2832459767.index
1709371982.index
630080528.index
486212650.index
1441918778.index
2529513876.index
2747938833.index
2986274923.index
3967280502.index
575839070.index
4088453328.index
689502246.index
1214367305.index
1404714077.index
3156457552.index
4174907092.index
4010566227.index
962547040.index
362199794.index
1972697557.index
3151052348.index
1582025922.index
3585466628.index
1428256770.index
1760445989.index
2099293024.index
1708851462.index
1515444387.index
1434590085.index
3862945460.index
2169407369.index
106914297.index
3201819475.index
1353222841.index
446869445.index
2564154321.index
2168459144.index
225032474.index
3906887083.index
1805612800.index
2204403105.index
3632026558.index
3785549540.index
3395646240.index
3501317306.index
2513897111.index
1020184470.index
