INDEX VERSION 1.131+C:\Users\ramannpr\support_works\prem-java8-springboot-microservices\.metadata\.plugins\org.eclipse.jdt.core
4184620892.index
1118361339.index
4018108279.index
3837740769.index
1865563010.index
410985635.index
2268786752.index
1253688453.index
3491642073.index
89754900.index
258215668.index
424372971.index
378153073.index
924673716.index
3873696353.index
3554285876.index
2405708574.index
1228323271.index
4208700202.index
1038425260.index
208089862.index
853294408.index
2763765207.index
540026970.index
2578411941.index
3608780438.index
4087089178.index
423668821.index
1385153547.index
1082481055.index
955409931.index
2053729234.index
2515198726.index
1158433969.index
719321456.index
3629067910.index
3664434139.index
362199794.index
2313958777.index
4266403740.index
3780435684.index
3039184894.index
508145117.index
1745886755.index
2397943341.index
790293785.index
207341042.index
1233488400.index
876485979.index
911245093.index
2054705722.index
919331380.index
1487783305.index
3247542602.index
4170990302.index
3602764609.index
2950603888.index
1403904873.index
3927588645.index
2585191488.index
1386440510.index
3199405612.index
667067614.index
852844870.index
1696494569.index
4244043495.index
528844237.index
2169407369.index
3028559102.index
3592324085.index
3900835787.index
2915072775.index
3863328446.index
1202823567.index
3787286074.index
4195670730.index
353754532.index
692542439.index
4285879476.index
1076844087.index
3408838264.index
2568090726.index
3314676928.index
1608579526.index
205417611.index
949368981.index
3141256530.index
3090139439.index
1620146765.index
3117044325.index
1650732884.index
1918478546.index
2013734287.index
3324128331.index
2241811906.index
1228135853.index
2114934741.index
1893894727.index
2335980471.index
3324278907.index
3599578774.index
272921644.index
3935390762.index
3693918647.index
1383676438.index
2264889210.index
3263262284.index
2941501479.index
3329869171.index
1962001154.index
4232051722.index
1854939857.index
3569779.index
3572967128.index
3324612352.index
1001982692.index
890392424.index
962547040.index
2526506392.index
3697795078.index
314878857.index
226300725.index
2745507954.index
3796863028.index
785988714.index
1319128021.index
854726998.index
2239862724.index
258828259.index
3356293960.index
2366187434.index
2575745721.index
1975972258.index
416860875.index
446869445.index
2832459767.index
771239714.index
3292617649.index
3878524279.index
1576609233.index
1972697557.index
1292625792.index
3139554680.index
675867160.index
2847548542.index
3241957223.index
2669873715.index
534771633.index
3883608304.index
1295108286.index
4107267014.index
721664578.index
262629720.index
3086375095.index
676535794.index
3376339023.index
3357573583.index
2014581491.index
2940041470.index
1022489412.index
1792378765.index
881775183.index
1856131186.index
169796881.index
332552512.index
4200495815.index
2547374296.index
3662550970.index
2814638989.index
1793950835.index
479192563.index
2871731874.index
3090767186.index
1103832381.index
2002267408.index
117517524.index
412363776.index
3214032515.index
37777695.index
3457050775.index
3373731574.index
902432117.index
198434932.index
3359857299.index
2423645988.index
3722427481.index
4174215151.index
2507475985.index
126178538.index
1710102452.index
2315212759.index
1180915522.index
3695637975.index
3428192719.index
1711508044.index
271180759.index
3008120388.index
709509821.index
1405278549.index
2087289236.index
1435580009.index
2428704952.index
1575160330.index
2168459144.index
306192891.index
3736370382.index
2963618097.index
447525961.index
1515444387.index
4184487619.index
2511425907.index
3515129874.index
2218208024.index
2112741047.index
1141776122.index
4232178577.index
4270902516.index
2924625579.index
842300565.index
1301585996.index
2270638465.index
3647069862.index
172809347.index
2925679001.index
2343436462.index
3886130372.index
1810282188.index
2458137043.index
1703863742.index
2996827272.index
2328156822.index
3880282096.index
2529736297.index
3367366298.index
1927604672.index
1936438554.index
2915718050.index
1310930582.index
3423015731.index
3796809307.index
2537961431.index
3008087201.index
101701048.index
656741405.index
4083612493.index
710418648.index
2796258887.index
3901881091.index
1575816604.index
4128725239.index
3967280502.index
3915658389.index
3088083868.index
751887502.index
1362710205.index
3172434085.index
203828794.index
1207465174.index
612732444.index
822923203.index
1299573515.index
388015889.index
374393369.index
1314155335.index
4136073177.index
3656316095.index
2010527581.index
134925050.index
1801710740.index
1487470015.index
2410278499.index
3784670313.index
2532292776.index
3974896339.index
466177304.index
55281450.index
26683265.index
1129633148.index
2991459185.index
106914297.index
751704163.index
1696811155.index
3044087839.index
3972787828.index
2785605702.index
2289243406.index
767075105.index
824493093.index
494466972.index
296719952.index
2399425340.index
4238078599.index
4099004315.index
2768789911.index
636068967.index
3606698810.index
3391610166.index
513207819.index
3237783011.index
3059999453.index
810136069.index
304938151.index
4191256345.index
28172879.index
737060273.index
1997816215.index
3880231276.index
398852022.index
4016404235.index
1495270895.index
1751319221.index
2676596651.index
895729470.index
3324931613.index
481162704.index
1401501661.index
3603690196.index
1225148049.index
560671942.index
1408393328.index
985503597.index
4021318966.index
2573841451.index
2275476630.index
381549808.index
1900690243.index
2088757168.index
2806135479.index
1133951738.index
2691358998.index
986730341.index
3661497918.index
2290011935.index
2696325860.index
4085636665.index
2020632996.index
4159483876.index
2513897111.index
1797716867.index
2211164925.index
377629116.index
773387265.index
323151082.index
3034702034.index
4124237727.index
3905302235.index
1614806129.index
3163590721.index
3962763584.index
967604798.index
2167590071.index
3261239881.index
3033822286.index
1586054863.index
986505237.index
1756086121.index
2698540235.index
1912225051.index
1430751768.index
1883546252.index
3967364139.index
3638074430.index
4121206250.index
1367400509.index
1294098061.index
175086123.index
696938426.index
1655230666.index
1540393616.index
3170267773.index
2363774528.index
2080692850.index
937209643.index
4264640742.index
2867978721.index
3554970031.index
650748087.index
924709048.index
814000683.index
1368622536.index
2586063389.index
3440093413.index
2771310547.index
3622244527.index
1068494516.index
1788716167.index
1214367305.index
410254888.index
